# TCRW Fig 1(d) MSD | omega =  0.70 | D_r =  1.000E-03 | T =    1000000 | N_traj =    500
# columns:  t   <|r|^2>
         1    1.000000E+00
         2    1.998000E+00
         3    2.834000E+00
         4    3.374000E+00
         5    4.106000E+00
         6    4.798000E+00
         7    5.680000E+00
         8    6.428000E+00
         9    7.032000E+00
        12    9.522000E+00
        16    1.251000E+01
        22    1.685400E+01
        29    2.260600E+01
        39    3.116800E+01
        51    3.798800E+01
        68    5.061200E+01
        91    6.935600E+01
       120    9.402800E+01
       159    1.231180E+02
       212    1.620680E+02
       281    2.073320E+02
       372    2.825720E+02
       494    3.633400E+02
       655    4.547140E+02
       868    6.235220E+02
      1151    8.207260E+02
      1526    1.126964E+03
      2023    1.523464E+03
      2682    1.971308E+03
      3556    2.655286E+03
      4714    3.626908E+03
      6250    4.910504E+03
      8286    6.347438E+03
     10985    8.231452E+03
     14563    1.033024E+04
     19306    1.387626E+04
     25595    1.792255E+04
     33932    2.375910E+04
     44984    3.033017E+04
     59636    4.122739E+04
     79060    5.362920E+04
    104811    7.096788E+04
    138949    9.781661E+04
    184206    1.208619E+05
    244205    1.638160E+05
    323745    2.233793E+05
    429193    2.912373E+05
    568986    3.852612E+05
    754312    5.381431E+05
   1000000    7.366613E+05
