# TCRW Fig 1(d) MSD | omega =  0.60 | D_r =  1.000E-02 | T =    1000000 | N_traj =    500
# columns:  t   <|r|^2>
         1    9.920000E-01
         2    1.988000E+00
         3    2.936000E+00
         4    3.816000E+00
         5    4.808000E+00
         6    5.916000E+00
         7    6.778000E+00
         8    7.876000E+00
         9    8.768000E+00
        12    1.147000E+01
        16    1.407000E+01
        22    1.986600E+01
        29    2.454200E+01
        39    3.363600E+01
        51    4.399400E+01
        68    5.417800E+01
        91    7.640400E+01
       120    1.060800E+02
       159    1.381120E+02
       212    1.900840E+02
       281    2.558900E+02
       372    3.349600E+02
       494    4.443940E+02
       655    6.094080E+02
       868    8.598680E+02
      1151    1.145314E+03
      1526    1.568794E+03
      2023    2.003754E+03
      2682    2.592596E+03
      3556    3.448904E+03
      4714    4.520108E+03
      6250    5.889386E+03
      8286    7.600344E+03
     10985    1.000030E+04
     14563    1.367746E+04
     19306    1.768326E+04
     25595    2.476095E+04
     33932    3.044103E+04
     44984    3.985644E+04
     59636    5.404054E+04
     79060    7.305051E+04
    104811    9.552561E+04
    138949    1.338465E+05
    184206    1.747943E+05
    244205    2.342830E+05
    323745    3.079719E+05
    429193    4.193952E+05
    568986    5.289229E+05
    754312    7.151297E+05
   1000000    9.385669E+05
