# TCRW Fig 1(c) MSD | omega =  0.70 | D_r =  1.000E-03 | T =    1000000 | N_traj =   1000
# columns:  t   <|r|^2>
         1    9.990000E-01
         2    1.999000E+00
         3    2.778000E+00
         4    3.466000E+00
         5    4.319000E+00
         6    5.079000E+00
         7    5.773000E+00
         8    6.408000E+00
         9    7.246000E+00
        10    8.145000E+00
        11    8.928000E+00
        12    9.470000E+00
        13    1.012500E+01
        14    1.090400E+01
        15    1.182600E+01
        16    1.283200E+01
        17    1.359800E+01
        18    1.410800E+01
        19    1.468600E+01
        20    1.529700E+01
        21    1.573000E+01
        22    1.645200E+01
        23    1.679700E+01
        24    1.773200E+01
        28    2.031000E+01
        32    2.278700E+01
        37    2.557900E+01
        43    2.907000E+01
        49    3.333200E+01
        57    4.000100E+01
        65    4.590600E+01
        75    5.284600E+01
        86    5.986800E+01
       100    7.206900E+01
       114    8.139500E+01
       132    9.338200E+01
       151    1.093970E+02
       174    1.241650E+02
       200    1.446970E+02
       231    1.703540E+02
       265    1.916950E+02
       305    2.173700E+02
       351    2.550270E+02
       403    3.021810E+02
       464    3.447300E+02
       533    4.001350E+02
       613    4.637210E+02
       705    5.330840E+02
       811    6.095560E+02
       932    7.041220E+02
      1072    7.909960E+02
      1232    9.045000E+02
      1417    1.069794E+03
      1629    1.248382E+03
      1873    1.442533E+03
      2154    1.687815E+03
      2477    1.927660E+03
      2848    2.285703E+03
      3274    2.522225E+03
      3764    2.861023E+03
      4328    3.278458E+03
      4977    3.662472E+03
      5722    4.339533E+03
      6579    4.919339E+03
      7564    5.635526E+03
      8697    6.460692E+03
     10000    7.407111E+03
     11497    8.731007E+03
     13219    1.026031E+04
     15199    1.161984E+04
     17475    1.321194E+04
     20092    1.562173E+04
     23101    1.816476E+04
     26560    2.110828E+04
     30538    2.386479E+04
     35111    2.726231E+04
     40370    3.153360E+04
     46415    3.686944E+04
     53366    4.236548E+04
     61359    4.775434E+04
     70548    5.555205E+04
     81113    6.282158E+04
     93260    7.065144E+04
    107226    8.082530E+04
    123284    9.277194E+04
    141747    1.048317E+05
    162975    1.216714E+05
    187381    1.399560E+05
    215443    1.587791E+05
    247707    1.860822E+05
    284803    2.155660E+05
    327454    2.395510E+05
    376493    2.754854E+05
    432876    3.199270E+05
    497702    3.699422E+05
    572236    4.237782E+05
    657933    4.783765E+05
    756463    5.461838E+05
    869749    6.343536E+05
   1000000    7.314367E+05
