# TCRW Fig 1(d) MSD | omega =  0.50 | D_r =  1.000E-02 | T =    1000000 | N_traj =    500
# columns:  t   <|r|^2>
         1    9.940000E-01
         2    1.984000E+00
         3    2.892000E+00
         4    3.818000E+00
         5    4.954000E+00
         6    6.000000E+00
         7    7.026000E+00
         8    8.036000E+00
         9    8.896000E+00
        12    1.132600E+01
        16    1.532000E+01
        22    2.130600E+01
        29    2.728200E+01
        39    3.724400E+01
        51    4.785800E+01
        68    6.138400E+01
        91    8.315000E+01
       120    1.148800E+02
       159    1.483560E+02
       212    2.000740E+02
       281    2.717180E+02
       372    3.603600E+02
       494    4.783380E+02
       655    6.467100E+02
       868    8.689120E+02
      1151    1.147106E+03
      1526    1.540662E+03
      2023    2.083202E+03
      2682    2.857566E+03
      3556    3.744808E+03
      4714    4.998826E+03
      6250    6.872956E+03
      8286    8.992330E+03
     10985    1.196930E+04
     14563    1.585579E+04
     19306    2.110103E+04
     25595    2.817636E+04
     33932    3.774846E+04
     44984    4.563357E+04
     59636    6.199442E+04
     79060    7.889762E+04
    104811    1.049428E+05
    138949    1.316534E+05
    184206    1.753269E+05
    244205    2.368472E+05
    323745    3.150275E+05
    429193    4.039259E+05
    568986    5.566035E+05
    754312    7.405374E+05
   1000000    1.013278E+06
