# TCRW Fig 1(d) MSD | omega =  0.20 | D_r =  1.000E-02 | T =    1000000 | N_traj =    500
# columns:  t   <|r|^2>
         1    9.880000E-01
         2    1.974000E+00
         3    2.422000E+00
         4    2.660000E+00
         5    3.154000E+00
         6    3.712000E+00
         7    4.138000E+00
         8    4.782000E+00
         9    5.350000E+00
        12    6.648000E+00
        16    8.274000E+00
        22    1.085400E+01
        29    1.387200E+01
        39    1.889800E+01
        51    2.459200E+01
        68    3.379600E+01
        91    4.549600E+01
       120    6.012800E+01
       159    7.577400E+01
       212    1.007900E+02
       281    1.366940E+02
       372    1.706720E+02
       494    2.332140E+02
       655    3.152960E+02
       868    4.164320E+02
      1151    5.529720E+02
      1526    7.258300E+02
      2023    9.467880E+02
      2682    1.182998E+03
      3556    1.669126E+03
      4714    2.270420E+03
      6250    2.953644E+03
      8286    3.955228E+03
     10985    5.448296E+03
     14563    7.111568E+03
     19306    9.881926E+03
     25595    1.331653E+04
     33932    1.697856E+04
     44984    2.230572E+04
     59636    2.909326E+04
     79060    3.826657E+04
    104811    4.874800E+04
    138949    6.655624E+04
    184206    8.993644E+04
    244205    1.178015E+05
    323745    1.524526E+05
    429193    2.020110E+05
    568986    2.731019E+05
    754312    3.559765E+05
   1000000    4.747497E+05
