# TCRW Fig 1(d) MSD | omega =  0.80 | D_r =  1.000E-03 | T =    1000000 | N_traj =    500
# columns:  t   <|r|^2>
         1    1.000000E+00
         2    2.000000E+00
         3    2.394000E+00
         4    2.612000E+00
         5    3.096000E+00
         6    3.716000E+00
         7    4.344000E+00
         8    4.886000E+00
         9    5.330000E+00
        12    7.110000E+00
        16    9.392000E+00
        22    1.200000E+01
        29    1.465600E+01
        39    2.111000E+01
        51    2.563600E+01
        68    3.384400E+01
        91    4.375800E+01
       120    6.003800E+01
       159    7.672600E+01
       212    9.935800E+01
       281    1.357400E+02
       372    1.795780E+02
       494    2.331400E+02
       655    3.027520E+02
       868    3.872400E+02
      1151    4.876640E+02
      1526    6.734800E+02
      2023    8.695580E+02
      2682    1.209620E+03
      3556    1.638464E+03
      4714    2.241316E+03
      6250    2.888210E+03
      8286    3.780834E+03
     10985    5.308594E+03
     14563    6.963114E+03
     19306    9.264742E+03
     25595    1.261348E+04
     33932    1.736670E+04
     44984    2.229066E+04
     59636    2.882751E+04
     79060    3.950523E+04
    104811    5.225864E+04
    138949    6.816452E+04
    184206    8.574731E+04
    244205    1.137627E+05
    323745    1.502277E+05
    429193    1.904795E+05
    568986    2.592783E+05
    754312    3.471448E+05
   1000000    4.715544E+05
