# TCRW Fig 1(d) MSD | omega =  0.60 | D_r =  1.000E-03 | T =    1000000 | N_traj =    500
# columns:  t   <|r|^2>
         1    9.980000E-01
         2    1.998000E+00
         3    2.900000E+00
         4    3.830000E+00
         5    4.670000E+00
         6    5.480000E+00
         7    6.308000E+00
         8    7.212000E+00
         9    8.298000E+00
        12    1.048800E+01
        16    1.401200E+01
        22    1.930200E+01
        29    2.666400E+01
        39    3.532600E+01
        51    4.667600E+01
        68    6.080400E+01
        91    8.134400E+01
       120    1.029120E+02
       159    1.372440E+02
       212    1.852920E+02
       281    2.649260E+02
       372    3.592600E+02
       494    4.611760E+02
       655    6.196540E+02
       868    8.222360E+02
      1151    1.040352E+03
      1526    1.408252E+03
      2023    1.775094E+03
      2682    2.395740E+03
      3556    3.043588E+03
      4714    3.803688E+03
      6250    5.340048E+03
      8286    7.320674E+03
     10985    9.474978E+03
     14563    1.276705E+04
     19306    1.612618E+04
     25595    2.241455E+04
     33932    3.006936E+04
     44984    4.212378E+04
     59636    5.570006E+04
     79060    8.064066E+04
    104811    1.059705E+05
    138949    1.308176E+05
    184206    1.733547E+05
    244205    2.333331E+05
    323745    3.117550E+05
    429193    4.117086E+05
    568986    5.239054E+05
    754312    7.066411E+05
   1000000    9.535703E+05
