# TCRW Fig 3(e):  θ_JDr and θ_Jω of the TOTAL left-wall current  (L = 10, ω = 1)
# L = 10   seed = 20260423
# columns:  iD  D_r  Jx_Dr_tot  Jy_Dr_tot  Jx_om_tot  Jy_om_tot  th_Dr_tot  th_om_tot
   1   1.00000E-04           7498         -67425          73015          73015   -1.46005    0.78540
   2   1.46780E-04           5095         -45794          23508          23507   -1.45999    0.78538
   3   2.15443E-04           3500         -31420          46650          46650   -1.45986    0.78540
   4   3.16228E-04           2376         -21253          44263          44262   -1.45946    0.78539
   5   4.64159E-04           1612         -14468          11190          11187   -1.45984    0.78526
   6   6.81292E-04           1704         -15261           5039           5039   -1.45960    0.78540
   7   1.00000E-03           2496         -22341          16950          16947   -1.45953    0.78531
   8   1.46780E-03           3670         -32545          34030          34030   -1.45850    0.78540
   9   2.15443E-03           5352         -47191          42587          42597   -1.45787    0.78552
  10   3.16228E-03           7889         -68887          61801          61802   -1.45677    0.78541
  11   4.64159E-03          11526         -99381          89125          89123   -1.45533    0.78539
  12   6.81292E-03          16943        -142598         142690         142698   -1.45253    0.78543
  13   1.00000E-02          24792        -202140         206417         206416   -1.44876    0.78540
  14   1.46780E-02          36193        -283375         284024         284035   -1.44376    0.78542
  15   2.15443E-02          52818        -388728         388581         388648   -1.43575    0.78548
  16   3.16228E-02          76734        -519960         521928         521822   -1.42428    0.78530
  17   4.64159E-02         110786        -669921         669880         670004   -1.40691    0.78549
  18   6.81292E-02         158727        -826198         824524         824607   -1.38099    0.78545
  19   1.00000E-01         225264        -958914         960972         961281   -1.34006    0.78556
  20   1.46780E-01         312534       -1033811        1037609        1037453   -1.27722    0.78532
  21   2.15443E-01         423248       -1015994        1015384        1015241   -1.17607    0.78533
  22   3.16228E-01         540082        -864082         866590         866585   -1.01217    0.78540
  23   4.64159E-01         622419        -577574         580704         580228   -0.74804    0.78499
  24   6.81292E-01         542275        -219410         218493         217943   -0.38447    0.78414
  25   1.00000E+00              0              0              0              0    0.00000    0.00000
