# TCRW Fig 1(d) MSD | omega =  0.90 | D_r =  1.000E-02 | T =    1000000 | N_traj =    500
# columns:  t   <|r|^2>
         1    9.920000E-01
         2    1.986000E+00
         3    1.702000E+00
         4    1.474000E+00
         5    1.984000E+00
         6    2.482000E+00
         7    2.536000E+00
         8    2.652000E+00
         9    3.018000E+00
        12    3.560000E+00
        16    4.394000E+00
        22    5.966000E+00
        29    7.544000E+00
        39    1.019000E+01
        51    1.280400E+01
        68    1.611800E+01
        91    2.088600E+01
       120    2.758200E+01
       159    3.681000E+01
       212    4.588800E+01
       281    6.312000E+01
       372    8.593600E+01
       494    1.100520E+02
       655    1.522460E+02
       868    2.012860E+02
      1151    2.691500E+02
      1526    3.504600E+02
      2023    4.416400E+02
      2682    6.045440E+02
      3556    8.013780E+02
      4714    1.086078E+03
      6250    1.507214E+03
      8286    1.963168E+03
     10985    2.613234E+03
     14563    3.496354E+03
     19306    4.709726E+03
     25595    6.353104E+03
     33932    8.218078E+03
     44984    1.096374E+04
     59636    1.367297E+04
     79060    1.813741E+04
    104811    2.512636E+04
    138949    3.158837E+04
    184206    4.214708E+04
    244205    5.427487E+04
    323745    7.327584E+04
    429193    9.985255E+04
    568986    1.329112E+05
    754312    1.773554E+05
   1000000    2.324383E+05
