# TCRW Fig 3(e):  θ_JDr and θ_Jω of the TOTAL left-wall current  (L = 10, ω = 1)
# L = 10 (sites = 11)   seed = 20260423
# columns:  iD  D_r  Jx_Dr_tot  Jy_Dr_tot  Jx_om_tot  Jy_om_tot  th_Dr_tot  th_om_tot
   1   1.00000E-04          27257        -272367         251449         251446   -1.47105    0.78539
   2   1.46780E-04          18583        -185577         179105         179105   -1.47099    0.78540
   3   2.15443E-04          12663        -126313          91750          91751   -1.47088    0.78540
   4   3.16228E-04           8600         -85812          68679          68676   -1.47091    0.78538
   5   4.64159E-04           5888         -58476          80663          80662   -1.47044    0.78539
   6   6.81292E-04           4007         -39724          46975          46973   -1.47027    0.78538
   7   1.00000E-03           2728         -26874          39710          39712   -1.46963    0.78542
   8   1.46780E-03           3353         -32945          26502          26505   -1.46937    0.78545
   9   2.15443E-03           4865         -47651          48517          48517   -1.46905    0.78540
  10   3.16228E-03           7191         -69290          72011          72030   -1.46739    0.78553
  11   4.64159E-03          10517        -100009          99343          99340   -1.46602    0.78538
  12   6.81292E-03          15361        -142792         145773         145784   -1.46363    0.78544
  13   1.00000E-02          22592        -202394         212863         212862   -1.45963    0.78540
  14   1.46780E-02          32951        -282487         279486         279501   -1.45468    0.78542
  15   2.15443E-02          47874        -385382         384768         384792   -1.44720    0.78543
  16   3.16228E-02          69625        -510483         514476         514462   -1.43524    0.78538
  17   4.64159E-02         100538        -653351         660452         660440   -1.41811    0.78539
  18   6.81292E-02         144318        -799442         799733         799776   -1.39220    0.78543
  19   1.00000E-01         204388        -919064         919458         919614   -1.35197    0.78548
  20   1.46780E-01         284346        -986702         982066         981963   -1.29022    0.78535
  21   2.15443E-01         384137        -953395         960223         960055   -1.18778    0.78531
  22   3.16228E-01         491439        -807585         807681         806956   -1.02413    0.78495
  23   4.64159E-01         566329        -538178         536162         536807   -0.75992    0.78600
  24   6.81292E-01         496762        -204735         202657         203100   -0.39093    0.78649
  25   1.00000E+00              0              0              0              0    0.00000    0.00000
