# TCRW Fig 1(d) MSD | omega =  0.10 | D_r =  1.000E-02 | T =    1000000 | N_traj =    500
# columns:  t   <|r|^2>
         1    9.860000E-01
         2    1.974000E+00
         3    1.648000E+00
         4    1.336000E+00
         5    1.934000E+00
         6    2.498000E+00
         7    2.462000E+00
         8    2.402000E+00
         9    2.698000E+00
        12    3.474000E+00
        16    4.464000E+00
        22    6.578000E+00
        29    7.950000E+00
        39    1.029200E+01
        51    1.305200E+01
        68    1.744800E+01
        91    2.147400E+01
       120    2.717200E+01
       159    3.589000E+01
       212    4.886400E+01
       281    6.711800E+01
       372    8.535000E+01
       494    1.104160E+02
       655    1.418960E+02
       868    1.927080E+02
      1151    2.607060E+02
      1526    3.600120E+02
      2023    4.617000E+02
      2682    6.123560E+02
      3556    7.705420E+02
      4714    9.618900E+02
      6250    1.299990E+03
      8286    1.777222E+03
     10985    2.250884E+03
     14563    3.013138E+03
     19306    4.226690E+03
     25595    5.765254E+03
     33932    7.526432E+03
     44984    1.005944E+04
     59636    1.258420E+04
     79060    1.653309E+04
    104811    2.236037E+04
    138949    3.155402E+04
    184206    3.975984E+04
    244205    5.415908E+04
    323745    7.365950E+04
    429193    9.147849E+04
    568986    1.242572E+05
    754312    1.670159E+05
   1000000    2.126137E+05
