# TCRW Fig 1(d) MSD | omega =  0.90 | D_r =  1.000E-03 | T =    1000000 | N_traj =    500
# columns:  t   <|r|^2>
         1    9.960000E-01
         2    1.996000E+00
         3    1.844000E+00
         4    1.572000E+00
         5    2.042000E+00
         6    2.714000E+00
         7    2.712000E+00
         8    2.496000E+00
         9    2.948000E+00
        12    3.566000E+00
        16    4.650000E+00
        22    6.030000E+00
        29    7.864000E+00
        39    1.016000E+01
        51    1.308600E+01
        68    1.643800E+01
        91    2.152600E+01
       120    2.814600E+01
       159    3.910200E+01
       212    5.238600E+01
       281    6.826400E+01
       372    8.862400E+01
       494    1.164940E+02
       655    1.446720E+02
       868    1.895880E+02
      1151    2.420080E+02
      1526    3.362960E+02
      2023    4.543780E+02
      2682    5.764800E+02
      3556    7.762660E+02
      4714    1.072576E+03
      6250    1.390054E+03
      8286    1.886966E+03
     10985    2.492500E+03
     14563    3.490106E+03
     19306    4.795890E+03
     25595    6.084012E+03
     33932    7.601220E+03
     44984    9.765882E+03
     59636    1.306149E+04
     79060    1.786483E+04
    104811    2.451611E+04
    138949    3.314610E+04
    184206    4.186990E+04
    244205    5.270810E+04
    323745    6.943318E+04
    429193    9.395467E+04
    568986    1.265395E+05
    754312    1.675733E+05
   1000000    2.182887E+05
