# TCRW Fig 1(d) MSD | omega =  0.40 | D_r =  1.000E-03 | T =    1000000 | N_traj =    500
# columns:  t   <|r|^2>
         1    9.980000E-01
         2    1.998000E+00
         3    2.908000E+00
         4    3.774000E+00
         5    4.918000E+00
         6    5.898000E+00
         7    6.778000E+00
         8    7.582000E+00
         9    8.546000E+00
        12    1.145800E+01
        16    1.551600E+01
        22    1.972600E+01
        29    2.598800E+01
        39    3.548600E+01
        51    4.661000E+01
        68    6.081200E+01
        91    7.729000E+01
       120    1.046240E+02
       159    1.360840E+02
       212    1.910100E+02
       281    2.556580E+02
       372    3.235060E+02
       494    4.298740E+02
       655    5.772560E+02
       868    7.616080E+02
      1151    1.053298E+03
      1526    1.480542E+03
      2023    1.967730E+03
      2682    2.560088E+03
      3556    3.285448E+03
      4714    4.191866E+03
      6250    5.660600E+03
      8286    7.705056E+03
     10985    1.058372E+04
     14563    1.403833E+04
     19306    1.951244E+04
     25595    2.380409E+04
     33932    3.345385E+04
     44984    4.215711E+04
     59636    5.534256E+04
     79060    6.928450E+04
    104811    8.981419E+04
    138949    1.239083E+05
    184206    1.597823E+05
    244205    2.167212E+05
    323745    2.890732E+05
    429193    4.193601E+05
    568986    5.431850E+05
    754312    7.312668E+05
   1000000    9.415142E+05
