# TCRW Fig 3(e):  θ_JDr and θ_Jω of the TOTAL left-wall current  (L = 10, ω = 1)
# L = 10   seed = 20260423
# columns:  iD  D_r  Jx_Dr_tot  Jy_Dr_tot  Jx_om_tot  Jy_om_tot  th_Dr_tot  th_om_tot
   1   1.00000E-04          29987        -269624         291033         291031   -1.46003    0.78539
   2   1.46780E-04          20440        -183844         154031         154030   -1.46007    0.78539
   3   2.15443E-04          13931        -125059         116664         116665   -1.45986    0.78540
   4   3.16228E-04           9480         -84968          88331          88329   -1.45968    0.78539
   5   4.64159E-04           6457         -57871          59362          59360   -1.45968    0.78538
   6   6.81292E-04           4402         -39349          43591          43591   -1.45939    0.78540
   7   1.00000E-03           2995         -26673          28034          28037   -1.45898    0.78545
   8   1.46780E-03           3674         -32558          36288          36287   -1.45843    0.78538
   9   2.15443E-03           5341         -47276          41988          41978   -1.45830    0.78528
  10   3.16228E-03           7881         -68898          63527          63532   -1.45690    0.78544
  11   4.64159E-03          11545         -99285         100901         100904   -1.45503    0.78541
  12   6.81292E-03          16906        -142155         149056         149044   -1.45243    0.78536
  13   1.00000E-02          24710        -202015         201639         201634   -1.44908    0.78539
  14   1.46780E-02          36140        -283569         276462         276517   -1.44403    0.78550
  15   2.15443E-02          52662        -388351         387474         387473   -1.43601    0.78540
  16   3.16228E-02          76737        -518901         524483         524557   -1.42398    0.78547
  17   4.64159E-02         110380        -668241         673519         673430   -1.40709    0.78533
  18   6.81292E-02         159067        -823336         829111         829045   -1.37995    0.78536
  19   1.00000E-01         225052        -957054         958651         958934   -1.33984    0.78555
  20   1.46780E-01         312815       -1034990        1038340        1038132   -1.27729    0.78530
  21   2.15443E-01         422506       -1013329        1013099        1013555   -1.17577    0.78562
  22   3.16228E-01         539895        -867827         864342         863634   -1.01427    0.78499
  23   4.64159E-01         621584        -577370         577865         578483   -0.74854    0.78593
  24   6.81292E-01         540831        -217373         217575         217882   -0.38216    0.78610
  25   1.00000E+00              0              0              0              0    0.00000    0.00000
