# TCRW Fig 1(d) MSD | omega =  0.30 | D_r =  1.000E-03 | T =    1000000 | N_traj =    500
# columns:  t   <|r|^2>
         1    1.000000E+00
         2    2.000000E+00
         3    2.464000E+00
         4    3.024000E+00
         5    3.872000E+00
         6    4.686000E+00
         7    5.142000E+00
         8    5.802000E+00
         9    6.536000E+00
        12    8.784000E+00
        16    1.167800E+01
        22    1.576800E+01
        29    2.172000E+01
        39    2.996800E+01
        51    3.792800E+01
        68    4.994400E+01
        91    6.642600E+01
       120    9.107400E+01
       159    1.155680E+02
       212    1.557700E+02
       281    2.075440E+02
       372    2.765540E+02
       494    3.659980E+02
       655    5.114120E+02
       868    6.812400E+02
      1151    8.425740E+02
      1526    1.102602E+03
      2023    1.413254E+03
      2682    1.837874E+03
      3556    2.478136E+03
      4714    3.160280E+03
      6250    4.221542E+03
      8286    5.790650E+03
     10985    7.645310E+03
     14563    1.003778E+04
     19306    1.452004E+04
     25595    1.960845E+04
     33932    2.543623E+04
     44984    3.318398E+04
     59636    4.355701E+04
     79060    5.726888E+04
    104811    7.438950E+04
    138949    9.869514E+04
    184206    1.348056E+05
    244205    1.773830E+05
    323745    2.290551E+05
    429193    2.985090E+05
    568986    3.769659E+05
    754312    4.680029E+05
   1000000    6.461044E+05
